Flexible Shaft
10/14/2015 12:44:21 PM
Sample Rate (Hz) = 2000.00
Effective Sample Rate (Hz) = 2000.00
Frequency (Hz)	Current (A)	Bode Magnitude (dB)	Bode Phase (deg) 

4.0002	0.8834	-4.3185	-91.8526
3.9998	0.8831	-4.3400	-92.1686
4.0002	0.8832	-4.3241	-92.0122
4.0004	0.8734	-4.4764	-451.7014
4.0002	0.8670	-4.5242	-91.9019
4.2009	0.9109	-4.6775	-95.3399
4.2008	0.9151	-4.6549	-96.9649
4.1997	0.9140	-4.7101	-96.1154
4.2021	0.9025	-4.7974	-92.3842
4.2006	0.9117	-4.6588	-95.9862
4.4001	0.9399	-4.3480	-98.3624
4.3999	0.9419	-4.3141	-98.6463
4.4000	0.9438	-4.3045	-98.6280
4.4001	0.9453	-4.2981	-98.3235
4.4001	0.9455	-4.3011	-98.2862
4.6001	0.9134	-3.9007	-102.0030
4.6003	0.9185	-3.8678	-101.5049
4.6000	0.9088	-4.0262	-102.3532
4.5998	0.9111	-3.9559	-102.6380
4.6001	0.9150	-3.9441	-101.5395
4.8000	0.9282	-2.2690	-105.2844
4.8000	0.9289	-2.2538	-105.3816
4.8002	0.9323	-2.2138	-105.0211
4.8002	0.9280	-2.2436	-104.6275
4.7999	0.9303	-2.2184	-105.5173
5.0000	0.9361	-0.3384	-109.8841
5.0001	0.9391	-0.3241	-109.4755
4.9999	0.9408	-0.3236	-109.0817
4.9999	0.9407	-0.3063	-109.0986
5.0000	0.9399	-0.3164	-108.9104
5.2001	0.9149	1.7030	-112.2542
5.2000	0.9168	1.7061	-112.2528
5.2002	0.9179	1.7133	-112.1557
5.2000	0.9191	1.7302	-112.3075
5.2000	0.9203	1.7682	-112.7050
5.3999	0.8573	4.8536	-119.2686
5.4000	0.8591	4.8902	-119.5455
5.4000	0.8669	4.9822	-119.6584
5.4001	0.8697	5.0655	-119.8365
5.4000	0.8696	5.0774	-119.9013
5.6000	0.6256	11.2047	-159.5687
5.6000	0.6229	11.3009	-160.2782
5.6000	0.6212	11.3578	-160.7661
5.6001	0.6224	11.4070	-161.0639
5.6001	0.6234	11.4630	-161.3498
5.7998	0.7041	9.5208	-218.7239
5.8000	0.7099	9.5638	-219.3361
5.8002	0.7127	9.5869	-219.0996
5.8000	0.7121	9.6255	-219.2831
5.8000	0.7132	9.6170	-219.6501
6.0001	0.8502	5.3715	-239.3591
6.0001	0.8471	5.3193	-240.3317
6.0001	0.8466	5.3465	-239.8981
6.0000	0.8495	5.3562	-239.9833
6.0000	0.8497	5.3892	-239.7272
6.2000	0.9002	1.7306	-248.4302
6.2001	0.8980	1.7714	-248.5860
6.2000	0.9003	1.7885	-247.9402
6.2001	0.8978	1.7739	-248.5291
6.2000	0.9013	1.7781	-248.2787
6.4000	0.9154	-1.2617	-252.5658
6.4000	0.9160	-1.2776	-252.7036
6.4000	0.9200	-1.2188	-252.6670
6.4001	0.9164	-1.2606	-252.9253
6.4000	0.9212	-1.2104	-252.7543
6.6000	0.9223	-3.8074	-256.4180
6.6001	0.9246	-3.7633	-256.0370
6.6000	0.9254	-3.7374	-255.7874
6.6000	0.9226	-3.7602	-255.1821
6.6001	0.9252	-3.7196	-254.7909
6.8000	0.9320	-5.8410	-256.8162
6.8001	0.9298	-5.8601	-257.4461
6.8000	0.9265	-5.8729	-256.8102
6.8000	0.9264	-5.9042	-258.2336
6.8000	0.9266	-5.9210	-258.1220
7.0001	0.9323	-7.7207	-258.8036
7.0000	0.9352	-7.6703	-257.8923
7.0001	0.9351	-7.6710	-258.7374
7.0000	0.9349	-7.6695	-258.7446
7.0001	0.9348	-7.6609	-258.7084
7.2000	0.9342	-9.3333	-259.6538
7.2001	0.9364	-9.3337	-260.0266
7.2001	0.9390	-9.2760	-259.2605
7.2001	0.9395	-9.2873	-259.6016
7.2001	0.9401	-9.2710	-259.4535
7.4001	0.9362	-10.8036	-261.1018
7.4001	0.9394	-10.7657	-260.8496
7.4000	0.9357	-10.7866	-260.9865
7.4001	0.9372	-10.7734	-260.7309
7.4001	0.9352	-10.7859	-260.5403
7.6001	0.9343	-12.1629	-262.1163
7.6000	0.9353	-12.1564	-262.2503
7.6001	0.9349	-12.1517	-261.9437
7.6001	0.9363	-12.1422	-262.2382
7.6000	0.9372	-12.1432	-262.6629
7.8001	0.9298	-13.4488	-262.1432
7.8000	0.9288	-13.4844	-264.4119
7.8001	0.9330	-13.4411	-263.8433
7.8001	0.9334	-13.4171	-261.9071
7.8000	0.9333	-13.4148	-262.4745
8.0002	0.9392	-14.5056	-263.4025
8.0001	0.9398	-14.4907	-263.1017
8.0000	0.9389	-14.5023	-263.0743
8.0001	0.9422	-14.5203	-263.6009
8.0000	0.9460	-14.5081	-263.7034
8.2000	0.9367	-15.6719	-264.2976
8.2001	0.9385	-15.6478	-263.9282
8.2000	0.9382	-15.6518	-264.2921
8.2000	0.9395	-15.6398	-264.1596
8.2000	0.9398	-15.6310	-264.4320
8.4001	0.9269	-16.7375	-264.8298
8.4001	0.9273	-16.7366	-264.8712
8.4001	0.9263	-16.7395	-264.7178
8.4001	0.9261	-16.7427	-264.6019
8.4001	0.9255	-16.7511	-264.9147
8.6001	0.9395	-17.5449	-265.4220
8.6001	0.9397	-17.5413	-265.4519
8.6001	0.9395	-17.5510	-265.2662
8.6001	0.9383	-17.5622	-265.4895
8.6000	0.9400	-17.5501	-265.6696
8.8001	0.9397	-18.4487	-265.6157
8.8000	0.9396	-18.4658	-266.3363
8.8001	0.9428	-18.4203	-265.9195
8.8001	0.9424	-18.4263	-266.2004
8.8001	0.9426	-18.4207	-265.4694
9.0000	0.9355	-19.3370	-265.6429
9.0002	0.9376	-19.3207	-265.8860
9.0001	0.9382	-19.3140	-266.2862
9.0001	0.9381	-19.3113	-265.8308
9.0001	0.9385	-19.2938	-266.2220
9.2001	0.9417	-20.0853	-266.7843
9.2001	0.9417	-20.0780	-266.6245
9.2000	0.9413	-20.0887	-266.8239
9.2000	0.9412	-20.0867	-266.4587
9.2000	0.9411	-20.0875	-266.7615
9.4001	0.9459	-20.8187	-267.1718
9.4001	0.9439	-20.8364	-267.2174
9.4000	0.9455	-20.8253	-267.3514
9.4001	0.9446	-20.8192	-267.1939
9.4001	0.9444	-20.8366	-267.1596
9.6001	0.9429	-21.6125	-267.6667
9.6001	0.9406	-21.6509	-267.5553
9.6001	0.9420	-21.6222	-267.4854
9.6000	0.9425	-21.6112	-267.7495
9.6001	0.9405	-21.6279	-267.9063
9.7999	0.9315	-22.4744	-268.7504
9.8002	0.9322	-22.4525	-267.6961
9.8001	0.9315	-22.4625	-267.9455
9.8000	0.9308	-22.4773	-268.2916
9.8001	0.9327	-22.4608	-267.9761
10.0001	0.9378	-23.0834	-268.5799
10.0002	0.9358	-23.1120	-268.3439
10.0001	0.9399	-23.0679	-268.4059
10.0001	0.9350	-23.1033	-268.1279
10.0001	0.9375	-23.0960	-268.3642
