Flexible Shaft
10/7/2015 1:42:59 PM
Sample Rate (Hz) = 2000.00
Effective Sample Rate (Hz) = 2000.00
Frequency (Hz)	Current (A)	Bode Magnitude (dB)	Bode Phase (deg) 

3.9987	0.4611	-3.4093	-109.1890
4.0003	0.4600	-3.5103	-101.1250
4.0002	0.4618	-3.8339	-79.2629
3.9996	0.4609	-3.8133	-76.3472
3.9990	0.4612	-3.3541	-110.6964
4.2002	0.4593	-3.1003	-93.3352
4.2001	0.4598	-3.1791	-89.6787
4.2000	0.4588	-3.3190	-85.2536
4.1999	0.4588	-3.3502	-84.7878
4.1999	0.4599	-3.4033	-81.4865
4.4001	0.4595	-2.9674	-95.5921
4.3999	0.4551	-2.7903	-85.7346
4.3998	0.4584	-1.7709	-107.5795
4.4004	0.4571	-2.8001	-93.3422
4.3999	0.4582	-3.1506	-93.2237
4.6002	0.4607	-2.0611	-93.9047
4.5994	0.4594	-1.2241	-101.2033
4.5998	0.4595	-2.2173	-92.9104
4.5995	0.4587	-1.1301	-100.7491
4.5997	0.4595	-2.2991	-93.2221
4.8003	0.4552	-0.2136	-98.4825
4.8000	0.4618	-0.8544	-92.4438
4.8003	0.4553	-1.0840	-95.2138
4.7995	0.4600	-0.0415	-103.0784
4.8007	0.4570	-0.6117	-94.3858
5.0003	0.4610	0.4703	-97.8109
4.9997	0.4608	0.4184	-98.5107
4.9999	0.4604	0.4546	-99.0582
4.9999	0.4597	0.5260	-99.6799
5.0001	0.4576	0.5294	-98.7924
5.1995	0.4491	2.5915	-99.4944
5.2005	0.4567	2.8918	-102.9360
5.1999	0.4538	2.9883	-97.0885
5.2001	0.4509	3.4070	-99.1815
5.2003	0.4549	3.3115	-100.4968
5.3999	0.4419	6.4906	-107.4129
5.3997	0.4435	6.6330	-105.2303
5.3997	0.4437	6.7168	-107.4644
5.4000	0.4451	6.4024	-103.2686
5.4003	0.4444	6.8000	-105.5537
5.6001	0.3102	14.4573	-145.3515
5.6001	0.3066	14.4843	-146.7698
5.5999	0.3088	14.6071	-145.3168
5.6001	0.3102	14.6503	-143.7891
5.5999	0.3089	14.5793	-145.0811
5.8000	0.3830	12.6505	-236.7940
5.7996	0.3785	12.8454	-234.0273
5.7995	0.3774	12.8892	-233.5433
5.8000	0.3754	12.9052	-233.6777
5.8002	0.3765	12.9528	-233.6978
6.0002	0.4480	6.3407	-261.0897
5.9993	0.4451	7.0847	-256.8002
6.0005	0.4503	6.8038	-262.1069
6.0007	0.4451	6.6300	-258.4566
5.9994	0.4482	7.0052	-253.6607
6.1999	0.4530	1.5824	-263.9619
6.2000	0.4591	2.4272	-266.5562
6.1998	0.4525	1.9441	-265.3112
6.1998	0.4542	2.1981	-262.5171
6.2002	0.4541	1.9260	-268.7620
6.3999	0.4551	-1.4743	-266.4874
6.4003	0.4550	-1.6152	-275.7954
6.4004	0.4584	-1.0484	-262.8778
6.4002	0.4578	-1.3804	-269.2842
6.3998	0.4561	-1.3261	-268.2822
6.5999	0.4564	-4.1627	-260.7249
6.5996	0.4556	-4.2022	-269.4303
6.6001	0.4575	-3.8579	-274.0786
6.6003	0.4596	-3.8788	-276.2613
6.5998	0.4582	-4.2254	-276.0550
6.7997	0.4593	-6.5213	-269.1326
6.8000	0.4593	-5.8745	-267.0112
6.8005	0.4611	-6.2457	-273.8406
6.8003	0.4605	-5.7813	-271.8117
6.8001	0.4593	-6.3320	-295.2966
7.0003	0.4594	-8.2675	-271.8068
7.0003	0.4616	-8.0313	-261.9209
6.9997	0.4591	-7.4915	-262.2172
7.0004	0.4596	-8.4009	-273.8040
7.0003	0.4604	-7.9645	-257.2978
7.1999	0.4595	-9.5289	-269.6701
7.1999	0.4626	-9.4102	-266.5653
7.1996	0.4605	-9.9192	-272.8286
7.1998	0.4625	-10.0473	-279.0772
7.2000	0.4609	-9.9107	-276.0048
7.4001	0.4619	-9.9213	-308.7873
7.4003	0.4615	-9.9055	-135.4952
7.4000	0.4627	-9.9051	-301.9425
7.4002	0.4600	-9.9262	-121.0513
7.4001	0.4603	-9.9163	-289.3495
7.5999	0.4596	-9.9465	-255.5439
7.6001	0.4595	-9.9498	-210.6652
7.5999	0.4597	-9.9339	-110.6914
7.6001	0.4618	-9.9347	-60.6661
7.6001	0.4629	-9.9431	-350.0068
7.7997	0.4582	-9.9031	-96.2091
7.8005	0.4622	-9.9005	-87.7990
7.7998	0.4573	-9.9360	-28.5551
7.8005	0.4615	-9.9292	-1.7161
7.8005	0.4592	-9.9338	-0.3688
7.9997	0.4596	-9.9092	-117.7619
8.0002	0.4596	-9.8970	-202.4820
8.0002	0.4592	-9.9360	-235.6497
8.0005	0.4601	-9.9085	-293.9371
8.0001	0.4597	-9.8959	-331.8113
8.2008	0.4569	-9.8706	-84.3614
8.1990	0.4588	-9.8563	-235.8249
8.2010	0.4578	-9.9048	-357.9265
8.1993	0.4588	-9.8914	-114.7627
8.2009	0.4576	-9.8659	-243.4268
8.4011	0.4577	-9.8666	-243.5502
8.4011	0.4579	-9.8619	-106.3407
8.4006	0.4571	-9.8619	-283.6463
8.4001	0.4589	-9.8595	-115.2044
8.3995	0.4612	-9.9120	-305.1701
8.6010	0.4566	-9.9538	-111.7914
8.5998	0.4623	-9.9359	-48.9957
8.5999	0.4559	-9.9378	-280.8264
8.5995	0.4612	-9.9285	-217.9945
8.5997	0.4623	-9.8830	-107.2326
8.8002	0.4622	-9.8457	-269.8552
8.7997	0.4635	-9.8817	-288.0347
8.8007	0.4575	-9.8642	-302.9493
8.7998	0.4564	-9.8861	-261.2274
8.8008	0.4554	-9.9076	-254.2008
8.9997	0.4587	-9.8923	-0.8869
9.0002	0.4617	-9.9185	-113.4913
9.0001	0.4536	-9.9467	-316.3020
8.9996	0.4579	-9.9038	-43.2009
9.0005	0.4614	-9.9051	-123.7093
9.2009	0.4598	-9.8614	-10.5949
9.2006	0.4554	-9.8907	-148.3188
9.1999	0.4556	-9.8974	-307.0468
9.2004	0.4575	-9.9027	-78.4807
9.2005	0.4612	-9.8813	-245.0032
9.4000	0.4547	-9.9045	-324.0499
9.4002	0.4523	-9.8965	-230.6348
9.4010	0.4586	-9.9256	-97.5513
9.3995	0.4580	-9.9203	-31.1480
9.3990	0.4569	-9.9178	-294.3399
9.5997	0.4540	-9.9389	-252.9108
9.5995	0.4586	-9.9345	-234.7712
9.6005	0.4567	-9.9261	-222.4972
9.6006	0.4614	-9.9406	-218.9071
9.6001	0.4576	-9.9516	-207.3554
9.8003	0.4625	-9.8796	-183.1215
9.7999	0.4546	-9.8862	-258.8109
9.7998	0.4566	-9.8605	-336.0739
9.8004	0.4608	-9.8499	-72.0079
9.8004	0.4579	-9.9517	-123.2446
9.9999	0.4580	-9.9442	-77.0985
9.9999	0.4575	-9.9563	-284.8776
9.9998	0.4597	-9.9188	-99.5370
9.9999	0.4620	-9.9019	-258.8273
10.0001	0.4623	-9.9084	-22.5496
